C:\Users\Roman\Desktop\РНФ по разработке Цитометра\SPI_2019\SFM_Danil_autofluorescence\L929\Live\200mW_L929_live(95%)_autofluorescence_1.daf
single_cells

Object Number	Intensity_MC_Ch02
0	69527,0333333317
1	25480,3939393949
2	51321,7426470607
3	20887,1562499997
4	10926,1116071433
5	46012,1086956526
6	11908,921875
7	13597,3999999997
8	25502,5153846147
9	19860,9312499992
10	18078,2288135596
11	15084,7775423725
12	22421,550847458
13	63364,2788461563
14	23989,471153847
15	15203,5000000002
16	16988,7098214282
17	11758,3750000004
18	27834,8605769225
19	39422,7164179081
20	26183,5000000007
21	32644,8208333338
22	21384,5539772733
23	17063,9705882353
24	19148,7521551722
25	23236,0390625
26	59757,7738095245
27	20059,1644736833
28	25129,0395833318
29	30814,5070422545
30	15370,4186046515
33	22031,9499999992
34	18925,5250000003
35	43474,8020833321
36	27745,8320895516
37	43323,4779411748
38	16513,0432692307
39	26719,1500000002
40	10875,4817073171
41	13328,3874999996
42	67483,2598684181
43	15860,6990740744
44	21904,78125
45	13921,9663461542
46	20502,7583333336
47	33131,1551724133
48	13010,6499999998
49	18071,4624999999
50	24151,9937500008
51	18558,0588235291
52	25071,050000001
53	30077,1634615373
54	84303,5189393931
55	28734,3897058821
56	18019,1538461538
57	29629,140625
58	13949,301785714
59	28291,4374999983
60	24305,7172131153
61	20571,7979166669
62	40566,4687499989
63	59171,7556818191
64	60963,8235294147
65	18078,6658653843
66	16716,6153846155
67	25871,7944915247
68	33156,5729166664
69	13353,2025862064
70	30796,7833333339
71	20731,0476190464
72	24790,8772321425
73	20338,9519230772
74	13884,8583333331
75	59712,0671641766
76	9516,86842105255
77	18936,3942307688
78	37063,4266304357
79	19028,7318181815
80	16125,7023809521
81	42930,7039473672
82	55245,2359154943
83	33425,3846153849
84	17775,3706896548
85	11618,3928571431
86	22007,875
87	25866,398305085
89	14919,5625
90	15257,3375000005
91	15571,488805969
92	22374,0543478254
93	39282,8946428584
94	18160,0000000003
95	51594,3028846168
96	74485,593750004
97	30833,6609589043
98	27926,6953125
100	28815,1822033886
101	22706,4194915257
102	18005,3545081971
103	20775,1568181821
104	3756,34635416675
105	13937,3362068963
106	29903,2648305089
107	30400,8461538445
108	23665,375
109	12047,8508771929
110	23150,8958333336
111	16119,7999999995
112	20884,5035211277
113	35664,3529411775
114	39844,3177966095
115	77809,2794117683
116	13280,1442307694
117	56196,1999999988
118	24385,9166666662
119	24333,7481060614
120	24161,3894230774
121	14963,7548076927
122	20315,3448275861
123	9458,70588235312
124	26499,7708333327
125	21515,7779850749
126	53558,3689516153
127	16631,6679104479
128	15600,0144230771
130	17152,3552631576
131	23309,6269230776
132	25245,5789473672
133	12203,7807017547
134	53763,6458333354
135	46405,9851694913
136	28875,7272727264
137	14605,2708333338
138	17038,4326923079
139	25752,1730769225
140	26255,9907407401
141	27214,1800847449
142	39348,3684210515
143	34483,5075757595
144	37089,7666666657
145	29748,8232758614
146	9668,25000000001
147	28968,0076923072
148	18574,50390625
149	11947,4191176469
150	23910,4999999996
152	32202,5526315782
153	12446,1607142861
154	17734,2784090911
155	20948,985074627
156	22354,2536764716
157	21634,4999999989
159	31567,0430327874
160	26769,5671641796
161	27667,0208333341
162	40901,8249999989
163	21225,75
164	60662,2123287646
165	80194,3874999976
166	31333,0250000003
168	10461,1479591838
169	84685,3783783823
170	21291,4250000007
171	11949,9664179102
172	45089,1452205893
174	14953,7573529409
175	15100,0277777775
176	24336,7784090919
177	21350,4543269228
178	16848,8437500003
179	51315,9999999986
180	36283,52631579
181	30606,1488970571
182	20373,0921052628
183	18895,8153846149
184	32880,5000000004
185	19270,53125
187	25510,6214788739
188	50550,6875
189	13610,8491379313
190	16985,4615384615
191	64180,1971830938
192	13647,0625000003
193	46013,1416666675
194	50969,4423076946
195	49595,75
196	28911,3000000019
197	15118,980769231
198	15005,4237804875
199	38766,3264925384
200	50336,0000000013
201	12005,8196721315
202	25936,1465517236
203	16759,1562500003
204	53158,8475274712
205	39606,4176136362
206	23713,4521276592
207	11298,0125000004
208	68011,0673076951
209	37039,8792372885
210	15328,7996031743
211	86748,875
212	18908,4807692306
213	10223,378787879
214	17421,7302631571
215	42957,9000000007
216	20883,6384615391
217	17776,551724138
218	21843,483870967
220	37065,4158653842
221	33778,4000000006
222	28903,4588815777
223	23015,9918831184
224	20521,6365384623
225	30261,2903225802
226	26831,0833333338
227	31361,0317164186
228	18607,125
229	12525,8878676463
230	18088,4855769237
231	27651,0769230775
232	26109,3656716414
233	17035,8545454539
235	26788,703125
236	24344,52734375
237	11518,3249999998
238	73935,4306722709
239	45361,4209558804
240	52848,8798076905
241	30106,7670454536
242	26925,9326923082
243	19173,8103448274
244	13507,1826923073
245	22646,813636364
246	8742,61029411785
247	59698,7407407415
248	18770,7358490563
250	31022,5144230779
251	17321,3823529414
252	27539,7083333338
253	15810,375
254	31906,2443181814
255	77035,1447368466
256	48634,9560810785
257	25931,4861111116
258	15844,3196721307
259	33799,0673076918
260	19885,3055555559
261	18305,0552325577
262	21793,8863636354
264	34774,104452054
265	37079,1780303039
266	30128,873046875
267	16391,6309523811
268	31294,96875
269	14945,0000000004
270	9403,46875
271	11627,6666666668
272	27044,2727272721
273	22538,5708333331
274	36129,6875
275	15306,2142857149
276	44975,1231343308
277	21608,0855263155
278	12954,4852941174
279	19703,5018382349
280	21873,435096153
282	19420,0192307696
283	12503,9229166665
284	21270,8500000002
285	14059,971153846
286	21145,446022727
287	17167,9375
288	44910,4250000014
289	53853,056249998
290	41188,8163265304
291	13693,6190476187
292	17955,6306818184
293	12797,8380681821
294	19731,1290322577
295	47111,2156862766
296	31330,4705882357
297	26378,4166666671
298	17308,5999999999
299	18715,3846153852
300	9627,12053571416
301	24783,3786764722
302	26209,932692307
303	44786,0769230753
304	21418,3793103451
305	16988,7854166669
306	14391,5865384612
307	33767,5833333341
308	79431,9742647081
309	25333,7139423074
310	23488,0211864401
311	16418,8046875
312	21244,2249999995
313	23625,9249999993
314	23169,6108490563
315	18151,0240384617
316	74955,4196428586
317	9567,55902777767
318	29999,3715753427
319	32412,0021551728
320	14231,3749999996
321	16931,8283898305
322	38357,2058823516
323	23996,4507575765
324	14075,755208333
326	23095,1209677412
327	19325,0076923088
328	23301,5524999994
329	22460,1499999996
330	31278,6796875
331	25927,3173076926
332	17401,7499999994
333	21440,6538461536
334	14965,150390625
335	11441,6336206899
336	22473,4615384618
337	17179,4759615382
338	24873,4375
339	28225,6130952399
340	48050,249999997
341	55371,7681159428
342	15771,3365384614
343	17143,6458333338
344	13825,5397727271
345	20893,0500000001
346	10576,7500000002
347	32118,4519230778
348	18354,0923076926
350	27520,072916666
351	10084,2763157897
352	34541,8307692309
353	34484,7249999998
354	28057,0816326534
356	17864,392857143
357	65993,8279220745
358	35140,3050847447
359	21038,0528846159
360	19849,3235294113
361	22108,4791666672
362	22457,6357758619
363	16969,409090909
364	26559,7916666676
365	32298,4136029414
366	38278,9758064506
367	28007,1249999992
368	14060,5915178574
369	16495,814903846
370	13562,4602272729
371	81321,2426470619
372	27506,7462686572
373	25810,0020833331
374	34685,9583333328
375	16814,9496268653
376	64713,1874999993
377	37284,017045455
378	45309,812500002
379	21079,0975609761
380	45328,7499999983
382	56434,6983333331
383	16764,5817307693
384	12419,6193181816
385	18125,6923076918
386	38544,4833333321
387	29863,7500000008
388	21472,5265151511
389	56837,507692307
390	59981,21875
391	37810,5
392	24532,3333333331
393	12665,0360576927
394	19826,5416666663
395	21116,6000000007
396	17761,7941176467
397	50032,5769230764
398	14364,321691177
399	19144,2563559316
400	19696,3442307698
401	11892,8333333335
402	13613,8783783784
403	24327,2734375
404	44585,7517605624
405	25924,016949153
406	33326,0454545455
407	36025,6287313455
408	15108,1538461541
409	20632,1173076925
410	15685,5215517238
411	23469,7708333339
412	37760,5932835812
414	29866,8432203402
415	19964,3686440681
416	29953,5
417	23441,5429104473
418	10238,5657894733
419	13208,6125000003
420	21408,8240740742
421	23201,8990384612
422	34699,9094827589
423	82614,8836206933
424	28728,7499999994
425	48987,72083333
426	21479,5625
427	30641,1298076916
428	16462,8035714289
429	9325,52403846182
430	16323,5384615387
432	20719,9827586213
433	44731,640625
434	24188,1538461535
435	32127,8469827585
436	11341,6733870964
438	11181,0769230767
439	22304,1057692301
440	17084,0461538455
441	26921,0673076936
442	40986,17979452
443	21504,5131578952
444	37402,9734375026
445	27288,186567163
446	18943,4385593224
447	33574,9346153855
448	20388,1562499997
449	14676,4495614031
450	24002,4791666661
451	12282,9999999999
452	14396,9267241375
453	19309,9249999997
454	32699,3697916668
455	26691,3815789483
456	25939,4375000009
457	39195,625
458	22747,9868421057
459	111815,499999999
460	34072,69921875
461	34012,375
462	25448,0499999997
463	49711,7297794135
464	31903,4237288128
465	47823,0951492575
466	16126,4375000002
467	51886,1818181826
468	11915,1634615388
469	27896,9500000008
470	15101,7328431376
471	19740,8220338982
472	23890,4399038453
473	23122,65625
474	14458,1298076925
475	35750,7910447775
477	19766,3149038458
478	38066,9951923066
479	29399,3562499991
480	30732,5113636374
481	24802,8593750002
482	14946,3072033901
483	15119,8846153847
484	17768,6370967748
485	13503,6779661021
486	14715,6363636361
487	31559,4812499988
488	32973,9645522404
489	16341,3653846157
490	12165,375
491	22328,4008620693
492	12473,785087719
493	20492,9094827584
494	29005,3529411777
495	34419,5909090914
496	10039,646186441
497	14376,9390243907
498	30592,0625
500	26451,049999999
501	40698,3470149256
502	41521,9182692316
503	23849,545454546
504	18912,5288461535
505	33627,6923076925
506	20424,0250000005
507	58323,2812499966
508	14083,6249999997
509	26888,5104166684
511	21570,612500001
512	32670,481617646
513	27808,5942029002
514	10434,7613636362
515	46919,1875
516	21371,1176470592
517	11413,451754386
518	20191,6136363641
520	30462,796875
521	57017,3958333323
522	20852,484615384
523	34676,5208333337
524	18388,838942308
525	26513,7581967217
526	18277,8303571429
527	9209,82758620724
528	18459,6315789474
529	25736,8370535708
530	21728,0219298248
531	26451,232758621
532	44901,8496621596
533	17675,7458333341
534	21425,7982456138
535	12457,7769230768
537	24687,8474576269
538	17860,954741379
540	30933,5916666672
541	16284,2456896549
542	13475,7500000004
543	30552,55859375
544	27450,4754098372
545	10916,2986111113
546	51275,9539473671
547	14208,3211206902
548	36473,8299999993
549	36754,0769230763
550	23207,6340909097
551	17146,6470588237
552	19697,1049107145
553	22428,4278846151
554	36217,5374999999
555	29224,0980392162
556	22969,9692982458
557	19626,7043650792
558	20457,7451923073
559	22677,8374999993
560	19328,7711864408
561	20523,5037313424
562	15572,2931034485
563	55564,6458333347
564	47738,3479166657
565	75045,4079861137
566	18621,9875000008
567	21289,6598360668
568	22128,8749999994
569	37227,2048611113
570	25361,1475000009
571	20694,5458333336
572	19337,7961538466
573	20087,3653846149
574	17259,355932204
575	14569,711956522
576	14407,2163461541
577	25003,625
578	22631,0511363639
579	27834,9625000009
580	17509,2881355927
581	26552,3414634145
582	19259,4500000003
583	28178,875
584	49649,6503378371
585	35396,1749999996
586	11897,5999999996
587	10607,8437499996
588	27353,9687500003
589	47406,1062500021
590	20111,3538461543
591	19856,5708955221
592	53887,6346153831
593	42651,5741525424
594	42019,2368421051
595	64643,164179109
596	23056,7644230775
597	106527,678082188
598	30011,0546875
599	25199
600	21269,0603448273
601	44615,40625
602	26200,4471153836
603	23936,1906779658
604	27740,9117647052
605	24248,169921875
606	21517,5104166676
607	28664,0692771092
608	13735,0687499996
609	101509,796875002
610	25779,8620689657
611	9390,65086206889
613	59140,9538461525
614	32793,2767857148
616	59022,9886363649
617	18235,2559523805
618	9047,82386363617
619	20337,0183823524
620	39845,2816901422
621	19145,9299999997
622	18627,4210526311
623	27683,127049181
624	15267,3677884614
625	29419,6666666663
626	19689,302083333
627	36063,1996753227
628	16942,0961538461
629	43787,7435897423
630	30077,0876865665
631	23883,9533898311
632	22206,7412280706
633	24048,1604166664
635	16832,4307692301
636	25028,4230769224
638	59670,3787313459
639	14610,7866379315
641	27110,6969696968
642	59886,0000000035
643	22416,7878787885
644	23434,5461538474
645	13023,7171052635
646	10753,2543103445
647	13727,8541666663
648	30294,4624999991
649	15779,0614035085
650	54796,798780487
651	37545,0485074633
652	13011,7647058827
653	57095,1999999981
654	7668,07089552247
655	11149,34375
656	29534,2500000013
657	27693,5384615379
658	11271,03125
659	29237,8208955216
660	12569,6052631582
661	23696,5931818171
662	14814,5813953486
664	13505,2121212114
665	37978,2153846155
666	69688,0749999996
667	39535,3541666653
668	10710,6499999998
669	70842,1999999977
670	32271,734375
671	30681,9749999992
672	34469,9086538467
673	53946,9007352899
674	33372,2916666664
675	19281,484375
676	13798,5304878047
677	27043,4375
678	8599,6875
679	19516,6985294113
680	9975,53181818201
681	14416,2954545453
682	24044,21875
683	24241,3557692301
684	16401,6833333335
685	32658,6828358197
686	25584,5
687	26264,7874999991
689	40842,9176136357
690	25864,5048076931
691	19456,9632352951
693	14384,25
694	30912,1940789466
695	12495,4471153847
696	19607,2758620692
697	29322,1483050863
698	15292,8653846157
699	7010,80555555543
700	22881,2764423084
701	45093,1634615371
702	24358,0504807696
703	18588,6083333331
704	40666,593750001
705	31522,0729166675
706	17225,8474576276
707	36759,1875000019
708	20847,9215686275
709	16193,25
710	54579,3972602768
711	64907,8819444419
712	34553,1076923069
713	18730,6062500005
714	13205,3048245615
715	17778,9125000004
716	51489,1346153837
717	16577,2073170731
718	19671,4325396829
719	18237,8306451618
720	15219,3999999998
721	19995,2191558451
722	56426,8508064532
723	20767,7500000005
724	22399,1465517248
725	21027,03219697
726	15833,8100961535
727	13546,7142857139
729	36032,6647727272
730	21177,6009615389
731	28982,5562500008
732	16117,522959184
733	32692,9152542386
734	17897,6105769234
735	54022,104477614
736	15532,2000000003
737	19289,8401639337
738	26416,4237288128
739	14059,2764423078
740	19023,6030701753
741	47874,2403846162
742	46493,5185185163
743	34241,8904109569
744	20342,3124999994
745	28718,2711538471
746	29209,5884615382
747	17626,8782051285
748	24943,4124999998
749	23255,0816326521
750	9777,70052083324
751	31427,33984375
752	14333,2019230768
753	24178,2112068964
754	28543,2499999991
755	10263,1842105261
756	11516,3421052629
757	8992,30487804861
758	17215,75
759	23728,6076923069
760	14013,3125000003
761	35666,65625
762	19105,9395161279
763	44281,8630136978
764	36678,6716417903
765	35012,9436619711
766	22208,555555555
767	22504,8022388058
768	21279,611328125
769	31209,9999999988
770	19119,2584745762
771	28358,3557692302
772	18785,3365384613
773	18032,6810344829
774	8817,91803278706
775	15616,6947115381
776	67859,8403846171
777	43130,3771929814
779	29549,503424658
780	29293,3843283594
781	19363,0000000004
782	31765,9797794106
783	15318,5681818177
784	52822,8219178107
785	18908,4642857135
786	51528,9708904086
787	28574,8461538466
788	11391,5336538463
789	18770,6045454546
790	26708,2791666663
791	19938,9879807698
792	16537,2727272723
793	32884,8599137933
794	53430,7327586216
795	13839,0548245616
796	37252,8848684229
797	51919,5833333351
798	27443,141949152
799	19697,0581896553
800	33812,9302884626
801	27621,1874999993
802	18595,875
803	22223,1716101696
804	15280,6350806453
805	21950,765625
806	11778,1120689651
807	18964,8608870969
808	29091,3076923073
809	25147,6779661016
810	20076,7686170205
811	17989,7788461533
812	24669,734375
813	24292,9208333331
814	31332,9083333348
815	23195,7083333325
816	23021,6071428574
817	15859,5144230772
818	48703,872844827
819	14011,5862068962
820	23897,270833334
821	23263,4888059703
823	33495,316176472
824	33801,258333333
825	16782,8283898302
826	26044,265625
827	20386,945205478
828	29577,0839041084
829	23609,2067307688
830	27358,6307692302
831	24260,5625
832	13018,5410447754
833	23202,6071428579
834	69306,1604938223
835	17270,9843750001
836	37232,7076923083
837	17882,0303030306
838	21907,9204545463
839	25685,4772727285
840	21446,842105263
841	5805,61538461528
842	12967,6057692311
843	23627,1583333336
844	43982,3416666676
845	17914,4590909091
846	16287,2670454549
847	57607,6009615412
848	32329,7552816906
849	17551,4375
850	24424,6875000008
851	14091,2235576921
852	36958,1750000005
853	23279,9711538455
854	21346,6810344835
856	33442,0750000006
857	17195,7960526315
858	23824,2575757568
859	20726,5603448282
860	20492,3046875
861	20899,2849264697
862	10247,4591346151
863	14463,578125
864	29686,6439393947
865	9397,19886363624
866	28998,3774038458
867	14906,6381578945
868	45424,25
869	34633,9999999989
870	9907,78947368418
871	27579,2333333335
872	33628,7427884623
873	15749,59375
874	36613,0522388078
875	11969,25
876	10822,0129310343
877	29898,0216346149
878	122298,550000002
879	14130,6129032254
880	28634,625000001
881	15905,8686440683
882	20458,4807692303
883	20912,6031746038
884	20240,9999999997
885	25728,8312500007
886	15931,0701754385
887	28239,1838235285
888	21435,841836734
889	16655,836363636
890	22764,5416666672
891	58029,279411767
892	20994,28125
893	20957,8448275856
894	25509,6875
895	27703,3557692314
896	22705,96875
897	31221,6249999998
898	32426,1818181827
899	21636,5919117638
900	19424,0681818186
901	29808,6416666663
902	8725,47794117633
903	34513,2542372875
904	32934,4090909086
905	30332,9264705895
906	83022,8636363626
907	44547,5151515164
908	24206,4833333334
909	13754,5416666669
910	15109,8095238099
911	20002,8666666675
912	50048,566666668
913	53600,6574074057
914	65763,7895833344
915	29932,8219178061
916	34035,8347457619
917	21747,6095890421
918	22711,7857142864
919	20557,4711538458
920	20491,3231707321
921	16282,6185344828
923	25552,6458333342
924	12465,6619318177
925	20213,2894736835
926	16203,625
927	17398,8275000004
928	50173,9776785739
929	55065,2125000014
930	20131,9523809525
931	7799,99999999984
932	10636,9237288137
933	21891,4416666675
934	14578,8928571427
935	24034,0974576274
936	32847,1583333339
937	38062,8333333343
938	19154,7666666665
939	29333,9418604654
940	13146,1339285711
941	16779,1634615383
942	26016,1194029858
943	31281,2388059712
944	20598,865384615
945	9483,58653846158
946	16478,6022727267
947	16770,1875
948	16017,8954545452
949	12199,7565789475
950	17063,6418269228
951	20269,6461538467
952	23109,4830508477
953	34774,0671641792
954	24082,089912281
956	55542,279296875
957	26823,2916666671
958	8965,86250000016
959	8207,62272727268
960	30897,128472221
961	46843,4029850762
962	19726,6692307687
963	36007,6416666675
964	22277,6365384618
965	22244,875
966	11282,5975000001
967	15569,6416666669
968	33522,5820895533
969	13147,9999999997
970	16314,2124999997
971	10099,5125000002
972	7000,33522727268
973	30912,9403846156
974	21727,9230769229
975	12206
976	38401,0900000005
977	12241,8611111106
978	11271,1298076922
979	16316,7500000001
980	17942,9431818182
981	21112,964583333
982	31489,59375
983	42826,3749999987
984	20494,7916666665
985	34031,25
986	22102,8000000004
987	27262,6439393923
989	16839,6432926828
990	258348,289179114
991	20293,8721590915
992	32023,1363636354
993	9499,76315789484
994	43164,75
995	15965,5889830513
996	29462,7500000009
998	47093,798076924
999	23279,647727272


