C:\Users\Roman\Desktop\РНФ по разработке Цитометра\SPI_2019\SFM_Danil_autofluorescence\C2C12\Live\200mW_C2C12_live_autofluorescence_1.daf
single_cells

Object Number	Intensity_MC_Ch02
0	40881,4255319146
1	108444,775735299
2	64723,1125000004
3	19297,1524999997
4	188445,496323521
6	22814,0546875
7	95410,8250000042
8	33047,2727272728
9	56016,4982638861
11	12009,3149038465
12	15896,439189189
13	56540,5277777789
15	18387,5
16	66000,5818965524
17	2397,00000000005
18	416761,875
19	33681,2259615392
20	15699,2127659575
21	6776,27499999991
22	108197,514705878
23	183027,3984375
24	85534,45703125
25	3439,56976744183
26	47817,9090909087
27	151791,934374993
28	197943,37500001
29	79479,8072033901
30	51157,185546875
31	33506,0550847458
32	91275,4374999982
33	47850,4921875
34	95754,8955223916
35	12750,2644230771
36	132604,796875
37	143814,630597018
38	18599,896929824
39	49647,1271186435
40	39257,2666666675
41	81650,3999999977
42	60174,966796875
43	23310,9999999998
44	2067,5392156863
45	80470,0775862088
46	77584,7020833321
47	122281
48	42915,1707317056
49	67110,8771929822
50	43414,6673076915
51	70965,0021551737
52	6042,60294117657
53	75990,7892857149
54	77292,5979166656
55	81458,9999999985
56	77079,0307692294
57	228305,446666684
58	8531
59	9703,18872549036
60	140431,233333331
61	38623,495192308
62	106457,920955884
63	108301,778409092
64	26239,801136364
65	67745,0441176461
67	9535,76388888873
68	7447,52777777766
69	26478,9261363639
70	190132,408783796
71	76380,8979591867
72	35959,0669642863
73	60414,8894230775
74	93177,9534883717
75	27072,1420454557
76	32104,40086207
77	54412,9495192313
78	106740,763636363
79	136896,282786885
80	135832,961538457
81	19754,019230769
82	150238,062499999
83	156598,620901642
84	85237,118421049
85	231806,081730749
86	94476,9285714276
87	120787,840909087
88	4758,8173076923
89	116760,98550725
90	87619,8788461534
91	68842,752118646
92	89982,8983050863
93	58281,7211538448
94	89122,3922413767
95	156487,700000006
96	16779,9602272726
97	35933,7499999992
98	81741,9677419338
99	66414,6666666673
100	6507,2475961539
101	35632,6562500017
102	27061,7112068976
103	73962,6458333341
104	162945,62019231
106	168915,005859375
107	51653,822368421
108	92311,4375
109	58894,254237287
110	69797,0681818173
111	67854,4863636366
112	71630,5698529434
113	78013,3485576936
114	166083,388513506
115	176593,500000004
116	269676,469178069
117	27491,7698412699
118	41063,305921051
119	59023,5070422503
120	166022,012345668
121	83992,8526119426
122	82250,570833332
123	8004,36734693899
124	93643,9375
125	15107,8389423074
126	113617,472727271
127	36956,7066326523
128	13676,627906977
129	9196,37999999979
130	154798,862499993
131	141165,585616437
132	42216,7124999994
133	14621,308823529
134	123144,395522389
135	208445,71875
136	59778,2770270295
137	119648,34464286
138	9937,35227272724
139	141256,181985287
140	15139,5535714289
141	42430,0397727277
142	63285,3000000008
143	25312,2788461545
144	69634,8448275856
145	84110,3230769236
146	102945,565476188
147	9225,10795454521
148	277373,869047622
149	95853,048076926
150	80341,3059701526
151	5199,38068181824
152	14518,3359375002
153	34528,5885416666
154	17794
155	145785,237132349
156	7521,69097222238
157	47811,7500000014
158	4662,22222222213
159	118770,222222216
160	25364,5373134344
161	204535,995535691
162	6723,69531250009
163	90539,265625
164	114317,254901955
165	232984,625000021
166	301228,826086949
167	178249,625000004
168	52155,8225806461
169	30237,625
170	180702,275862075
171	119107,765822792
172	181368,948529409
173	164821,999999997
174	67527,9295454542
175	112141,6875
176	91869,9925373114
177	201920,11742424
178	2319,03409090913
179	77568,7543859628
180	133980,562500001
181	19306,1299019612
182	115345,186567167
183	4865,90909090904
184	45294,2454545449
185	69375,7163461536
186	33847,631410257
187	86641,3826530592
188	57874,4045454547
189	120269,750000005
190	57313,0568181803
191	27884,1041666662
192	58034,5204918015
193	79295,057692304
194	29278,7192982458
195	163509,20703125
196	81588,6746031775
197	13139,1704545455
198	123168,053846159
199	51283,3830645146
200	41115,7592592597
201	96499,3996710481
202	93066,338636364
203	128837,25
204	98345,9166666682
205	62790,3262711866
206	26231,0937499995
207	19910,5511363636
208	81648,3958333339
209	37038,1514423078
210	76827,7906626526
211	31459,7698412703
212	112235,6796875
213	70427,0549242437
214	30845,6875
215	17586,7791095896
216	65660,6083333335
217	83464,6499999978
218	95007,6617647083
219	73196,2615384631
220	35110,0259433966
221	41208,6118421061
222	136435,25
223	11776,8798076919
224	80921,1970338991
225	53513,217013888
226	30106,3990384605
227	65802,7954545441
228	106257,073529416
229	124969,090909089
230	63705,9609375
231	4496,84429824568
232	106026,86328125
233	11487,1805555557
234	17090,3163265307
235	117552,354166672
236	75520,6052631567
237	5258,0384615386
238	64277,6125000022
239	129740,200757572
240	64172,875
241	44793,1207627111
242	125938,168032788
243	79033,1125000024
244	66964
245	65485,5041666652
246	14275,7475961539
247	57970,1012931046
248	7115,13500000009
249	67971,0454545457
250	66619,2426470571
251	44923,6779661
252	195528,502083335
253	71063,6249999991
254	156815,914473679
255	34861,7272727269
256	21733,5215517234
258	92538,1270833318
259	51350,9230769218
260	69669,90234375
261	90383,290384612
262	128719,000000003
264	3496,30059523807
265	62190,8333333317
266	56732,157327585
267	13862,4711538459
268	84088,5625
269	147977,070422531
270	121321,417910451
271	50701,4632352943
272	88066,2916666678
273	65892,0098039198
274	30609,5263157899
275	105476,313492065
276	58350,3564814796
277	108019,0625
278	95211,476923074
279	89094,75
280	50023,8499999987
281	151774,65625001
282	128883,500000002
283	5900,27556818189
284	81770,5261194016
285	119017,068181817
286	138352,636363641
287	213498,514084497
288	13337,2528409092
289	17192,4473684213
290	53774,3492647091
291	15061,5964912278
292	27948,3584905664
293	160301,884615381
294	100243,951388891
295	60620,7750000034
296	116020,4921875
297	118428,131756763
298	127561,482394372
299	170364,754518065
300	226889,131578925
301	24175,9924999995
302	117960,675000001
303	62934,0056818172
304	117555,422619053
305	2089,30769230771
306	63062,3068181826
307	133983,864406783
308	12784,9886363639
309	79153,3674242429
310	183056,153846163
311	26755,5767543854
312	48465,6375000008
313	197072,201298695
314	89294,8181818197
315	4699,40625
316	55876,6985294135
317	36799,8153409084
318	94090,9797794155
319	146227,162500002
320	77135,3583333354
321	60711,1538461563
322	50039,1139705858
323	132999,430769235
324	67286,3538135578
325	108027,480932201
326	71391,058333332
327	194548,877840923
328	175561,870253169
329	9525,78353658529
330	73167,4540816306
331	7660,44722222234
332	56093,4400684924
333	20108,6071428566
334	5157,56730769237
335	23781,2187500002
336	79824,9044117619
337	47782,3620689665
338	102803,134328361
339	39448,6138392863
340	111389,486486483
341	56375,6488095263
342	46332,7884615391
343	62024,4000000023
344	36801,2584745763
345	47588,3886363664
346	42323,0816326515
347	120616,529411772
348	61722,3291666681
349	100400,311538464
350	38220,4754098349
351	40917,4576271201
352	47426,4769230758
353	295212,850000004
354	65901,3620689641
355	95216,388888886
356	160941,350000002
357	102367,589552246
358	102594,27272727
359	151134,625
360	38475,4131944449
361	27570,1420454543
362	65943,5969827623
363	131784,359375
364	28835,2357954543
365	23409,6224489794
366	86493,3823529435
367	112003,844230772
368	111887,3203125
369	48129,6875
370	140009,283582089
371	134902,714285715
372	72167,0769230762
373	21926,3522727271
374	94342,7333333338
375	135412,854651161
378	50900,9186046503
379	178148,13059702
380	71167,9124999987
381	165722,211538466
382	34150,2669491529
383	85523,3135593247
384	70197,004237289
386	122221,557835826
387	179810,013554213
388	66026,75
389	109776,267241382
390	79947,5263157905
391	53499,3990384596
392	33852,9387254908
393	73563,7636986293
394	40876,410714285
395	123075,358333331
396	30123,0769230772
397	14741,0718085108
398	94352,7669491549
399	319297,973958328
400	44006,884803921
401	103475,818181816
402	4368,53693181814
403	5412,21527777783
404	99893,621212122
405	42826,1452205871
406	18143,5999999999
407	8610,67500000011
408	71063,9015625018
409	210283,897058831
410	51973,6000000014
411	107423,446428577
412	83838,1190476154
413	62344,6866438353
414	17230,7045454545
415	43606,2500000032
416	108913,139705887
417	63210,7500000017
418	284920,432098774
420	54861,8323863642
421	13643,7727272723
422	44994,9427609415
423	89592,1514084487
424	82817,2459016378
425	40784,3749999998
426	117986,354166668
427	319645,133116868
428	79927,1973684239
429	32098,8640350872
430	53525,599609375
431	198267,991666663
432	169294,658783789
433	9740,91477272713
434	5640,22159090903
435	10506,7272727273
436	207255,09375
437	27433,9615384609
438	86055,7916666642
439	72000,5170454562
440	159194,212171063
441	138849,09090909
442	73673,2045454509
443	52544,588235295
444	37630,7187499994
445	229296,222972955
446	233623,628676479
447	49069,6484375
448	101960,125
449	63973,31640625
450	100298,545454544
451	81027,5
452	101480,724999996
453	113474,699999996
454	114813,463028165
455	109764,136904758
456	80334,4583333314
457	27055,0353260873
458	105950,050632915
459	111999,350000001
460	319082,615808816
461	203144,962837846
462	78806,0057692291
463	30867,067307693
464	102860,08333333
465	28462,8083333321
466	75754,8749999986
467	32969,6211538461
468	217177,84375
469	98811,599999998
470	167178,758771927
471	244480,827702711
473	66280,15625
474	158604,899999997
475	100489,168749996
476	120840,88815791
478	4251,91071428576
479	62534,0909090892
480	108502,576086959
481	52183,0592105268
482	2964,88461538459
483	139082,268581074
484	147194,078703705
485	152706,57758621
486	21500,3724999997
487	79241,1171875
489	174266,41666666
490	140318,380952384
491	53482,3557692299
493	54968,0416666675
494	2242,43750000002
495	62332,507142859
496	121789,115384617
497	63596,712890625
498	131754,750000002
499	115497,98507463
500	48028,9512711878
501	76411,7840909104
502	221584,062499991
503	244170,391447361
504	10303,7083333331
505	39954,7192307685
506	77767,7479508175
507	92625,8923076889
508	148346,100000006
509	74847,9062499992
510	146113,318181813
511	43271,4062499981
512	78263,125
513	115209,271428568
514	61722,5926724146
515	111511,5
516	30749,1177884624
517	12613,6083333335
518	97792,6470588165
519	4917,58536585356
520	70390,5230769243
521	35891,4900793637
522	13841,8249999997
523	107388
524	19364,5
525	100556,75
526	55857,0982142879
527	35207,0969387753
528	108093,000000003
529	101050,772727275
530	25679,4543269226
531	120507,719999998
532	28199,7338709688
533	14643,5216346151
534	174321,91544118
535	73882,4900793663
536	38287,0487288144
537	39460,0240384621
538	75706,1778846174
539	23031,0459183675
540	11079,2884615382
541	59890,21484375
542	103082,291666668
543	21673,9787234046
544	13156,3863636361
545	69104,1149999969
546	43610,8235294095
549	76060,3571428555
550	44799,0656779665
551	12476,4999999997
552	47395,2740384629
553	200246,849264714
554	63664,7230769261
555	95589,898351651
556	237743,530821932
557	26969,8581730775
558	80870,9076923056
559	49272,2586206885
560	120853,245098041
561	45352,3341346147
562	33504,4000000009
564	144454,7405303
565	176964,134191168
566	78229,6944444421
567	84203,5535714289
568	17838,9136904764
569	73117,7379807682
570	5132,22093023249
571	112849,440217393
572	47735,1194029872
573	128048,13786765
574	76146,0783582084
575	10105,5384615382
576	96091,9330357128
577	86431,4722222205
578	169715,576923087
579	39605,7692307683
580	68333,1059322044
581	2633,29807692317
582	91036,2806122436
583	50738,8601694911
584	97622,4041095838
585	61167,6819852921
586	48315,3749999984
587	157410,64788733
588	92443,200000002
589	61471,94921875
590	113263,877192978
591	108229,768750003
592	48468,7727272741
593	94141,7640845033
594	47638,4014423072
595	144954,071428571
596	24726,6789772723
597	7949,90384615401
598	168355,223958323
599	42986,1761363631
601	118994,130136989
602	276815,309701488
603	257005,515000005
604	137557,178571426
605	40535,1059322043
606	82810,8437500029
607	29746,7019230777
608	6654,11111111123
609	18353,2697368419
610	59476,6833333323
611	125178,077898553
612	70094,6361607134
613	82963,9195205507
614	14162,0408163268
616	214915,537698421
617	69346,4447115378
618	86331,0588235277
619	6998,4245283018
620	61703,5749999982
621	51147,6746323515
622	142508,106250004
623	46335,53125
624	37824,9393939383
625	30005,875
626	5446,07954545455
627	149011,564144741
628	92871,388059703
629	66999,8214285729
630	250271,281249983
631	6821,48491379324
632	61947,34509804
633	90045,4574468071
634	6206,27840909085
635	87268,6066176485
636	95212,1973684199
637	18800,3850000003
638	72390,7916666672
639	81379,64453125
640	83269,15234375
641	17049,625
642	62937,3208333328
643	21660,5849999997
645	65640,3076923084
646	49924,5437499985
647	82384,1732456158
648	135858,875000005
649	71188,4761904789
650	99389,1730769193
651	77421,015350878
652	106407,780405403
653	115854,475961541
654	44912,7403846144
655	118091,287499996
656	164780,95192308
657	61049,59375
658	129298,810763881
659	226315,310000012
660	203479,14423076
661	50999,0144230763
662	59403,3647540973
663	206627,119402977
664	167827,125
666	44244,6141304339
667	45955,4374999988
668	68681,44736842
669	55297,0113636382
670	17121,39
671	78393,1249999975
672	5556,12202380945
673	48593,9999999986
674	91578,0961538436
675	144506,968333333
676	70621,1610576898
677	147873,932692313
678	23618,1818181813
679	77193,0192307679
680	96951,4142857108
682	17455,6656976746
683	136069,183333336
684	2842,47222222213
685	163420,28571429
686	12856,5454545453
687	96632,3333333358
688	6126,96428571422
689	105294,666666668
690	84880,5576923055
691	71307,0166666649
692	147395,884868422
694	4280,51388888895
695	24908,1515151509
696	43965,2794117639
697	37057,744318183
698	38264,0336538451
699	125063,891791042
700	4638,21511627911
701	16850,0056818183
702	4953,38970588226
703	44934,1084905651
704	74129,0423728809
705	97425,8676470555
706	21540,0000000004
707	94165,958333332
708	71071,7420634908
709	62377,3012295072
710	284393,264423075
711	40116,9406779671
712	2536,45454545451
713	34336
714	336348,684210528
715	74314,35074627
716	113975,907692314
717	112129,56578947
718	39445,5791666667
719	34279,2711864413
720	44297,857142858
721	43993,3333333336
722	75963,8888888895
723	169268,338414624
724	13078,3362068961
725	66055,8695652184
726	209145,785714292
727	100592,61730769
728	59364,8687500004
729	105467,650000003
730	59760,71875
731	165419,35211268
732	21543,828125
733	28743,0852272733
734	120944,86948529
735	132520,938461546
736	9157,33806818194
737	68244,8305084743
738	3850,18181818189
739	26174,4310344822
740	97947,3870192319
741	14884,7469512193
742	3390,60416666672
743	59796,3375000012
744	40552,4374999997
745	78884,6546875046
746	6840,18999999998
747	23922,4850000002
748	91699,4500000021
749	42977,3665254229
750	112436,816666661
751	93599,9750000029
752	16759,2938596493
753	103337,3125
754	24062,5227272722
755	76665,4229166669
756	86454,5384615427
757	95969,2291666704
758	169659,255136992
759	8645,88586956515
760	52375,9152542363
761	75987,8166666687
762	84100,2058823502
763	69851,0135135185
764	217137,827020166
765	170990,945205476
766	55149
767	169242,538461544
768	46851,1947115391
769	51012,9208333325
771	148412,837500001
772	104754,141304349
773	105252,022388062
774	21331,9013157901
775	235414,534482754
776	22349,3095238101
777	84970,28125
778	80322,8640350856
779	189760,098557682
780	88846,4897541012
781	192602,334558818
782	83765,9084821407
783	84987,0673076894
784	99811,9935344821
785	45306,1575342484
786	43722,4791666673
787	33205,2758620696
788	87351,23828125
789	127299,3984375
790	101431,921875
791	95051,7837837786
792	43194,7142857145
793	149567,1875
794	94044,0545454579
795	68486,3813559313
796	91583,0242537289
797	92148,1134868398
798	237328,348484859
799	60669,3333333317
800	8956,53191489367
801	100612,518750001
802	118928,504098365
803	7713,96354166657
804	77636,1136363636
805	19325,6363636362
806	202677,180769237
807	40716,3541666676
808	37204,5999999995
809	930,1875
810	12743,7142857143
811	12431,375
812	13597,9500000002
813	7974,62313432829
814	11894,6666666666
815	47738,8157894758
816	4922,32670454548
817	39367,1008771937
818	138102,620192311
819	28879,5576923084
820	107075,050000003
821	70287,8920454539
822	82884,5122950841
823	108992,299999996
825	3812,53571428563
826	20947,3846153843
827	64194,9962121194
828	137448,087500001
829	100197,368243242
830	8634,97727272736
831	23433,3545918372
832	10167,801020408
833	74690,704918035
834	162636,943181817
835	25891,3677884621
836	111118,99583333
837	34320,1909547743
838	154248,838028162
839	93647,9230769177
840	30478,5019230764
841	62446,4657534261
842	11082,0083333333
843	83946,6661184251
844	69898,3937500003
845	60842,2375000015
846	4466,3226744186
847	21934,9375000004
848	118862,90120967
849	9146,03250000008
850	34615,4324324326
851	93531,28125
852	75103,375
853	11238,1916666672
854	86964,0812500012
855	78073,140625
857	60818,1773648644
858	156429,986301366
859	102906,797794123
860	49312,8038793094
861	3271,27840909093
862	32723,7173913034
863	96792,3885135106
864	145124,03125
865	3784,04487179486
866	36822,0374999999
867	209429,918918909
868	4517,43402777776
869	62317,3644067806
870	69292,9525862084
871	42498,53125
872	219134,574999992
873	96410,3055555587
874	113853,654761901
875	128525,066666665
876	16834,0999999999
877	9493,78977272717
878	79727,0769230787
879	117213,642857139
880	61224,5597014946
881	201613,445205469
882	103823,65625
883	43058,0847457613
884	68393,4072580638
885	11565,1249999998
886	138473,987499994
887	30499,2327586208
888	77762,6511194053
889	133501,380000001
890	74376,416015625
891	77967,6730769232
892	76403,1586538455
893	41211,4750000008
894	177918,93604652
895	85987,320422541
896	14910,5852272729
898	109141,120689652
899	98672,0326086904
901	113579,33898305
902	87945,9354166652
903	10264,1704545459
904	47290,9821428562
905	41510,8181818186
906	101102,917410716
907	19890,9281914897
908	77633,7650862094
909	7019,00250000012
910	80122,7187499986
911	47692,911016948
912	93024,8230769253
913	48484,5538461523
914	5304,02678571439
915	136648,761029407
916	38508,5472972979
917	633,187499999991
918	49508,5238095252
919	5669,10714285708
920	34016,9272388068
921	107327,63554217
922	10472,722222222
923	54850,2466216231
924	5063,31617647063
925	14574,3916666669
926	148553,546610163
927	155609,59375
928	81672,5166666664
929	63793,5863970571
930	59770,2573529443
931	95630,8833333318
932	239501,828525652
933	129139,93269231
934	23246,2807017539
935	75363,5
936	6886,13942307669
937	128719,12126866
938	8885,0625
939	90785,186440676
940	13410,6352040814
941	40814,4999999994
942	39105,6666666657
943	100452,683823531
944	35651,5024038464
945	170254,443548386
946	198163,736842095
947	179119,345394727
949	29954,75
950	84466,1571969661
951	113665,599999997
952	21777,3267045451
953	82271,7585227269
954	17357,125
955	38362,360795454
956	82049,7118644079
957	121660,56818182
958	59660,287500002
959	23640,0336538457
960	8086,38068181832
961	27849,6363636362
962	91826,9375
964	96193,5480769247
965	77372,0889423089
966	141826,209375007
967	84925,2807017489
968	46275,0267857134
969	96250,0150862074
970	30875,8080357151
971	139119,185606061
972	134334,669014088
973	7071,04081632639
974	85773,830769228
975	90396,470703125
976	4398,5915178571
978	124800,211864411
979	65226,6507936526
980	59814,8316326529
981	121480,249999998
982	14359,5636363633
983	54603,7307692329
984	21961,0227272725
985	34362,125
986	60476,0041666678
987	102842,937500002
988	53293,2894736825
989	100349,400000003
990	26062,3721590903
991	26179,9999999992
992	50475,1706730788
994	175469,649590166
995	19519,664772727
996	183029,971830979
997	23990,2950819663
998	98100,4145833356
999	151269,777027032


