C:\Users\Roman\Desktop\РНФ по разработке Цитометра\SPI_2019\SFM_Danil_autofluorescence\RAW\Live\200mW_RAW_live_autofluorescence_1.daf
single_cells

Object Number	Intensity_MC_Ch02
0	42486,262500003
2	17141,875
3	18244,373134329
4	42262,8582089544
5	20954,5376984126
6	14808,1730769232
7	14839,80859375
8	19412,4358974362
9	5668,46323529425
10	16271,6419491531
11	25291,634765625
12	28145,181034483
13	19134,416666667
14	20972,7352941181
15	24078,6458333327
16	25477,0576923073
17	14283,2222222215
18	16290,5349999992
19	10596,96875
20	40242,5549242427
21	14270,4407894735
22	24682,0823863641
23	22427,0294117658
24	44780,1758474578
25	16786,6357758617
26	61176,0192307708
28	19540,8658536589
29	28505,5340909083
30	28775,0000000015
31	30965,965517241
32	12823,2938596488
33	29198,7644230762
34	11661,44
35	75227,8474576277
36	17400,7187499998
37	17933,3220338979
38	13483,4645833331
39	13135,2272727274
40	31922,1800847456
41	28071,1704545468
42	25809,5933098595
43	38439,79435484
44	26284,9431818188
45	23537,2331730775
46	12048,6022727272
47	31653,9210526323
48	12262,1274509803
49	35566,6730769226
50	18665,1400862066
51	2086,40848214282
52	18574,2349137925
53	30443,0402542362
54	29522,1153846157
55	28691,4772727279
56	17446,8928571422
57	38992,4062499995
58	19064,5461538464
59	14198,5000000004
60	12742,5350000002
61	38029,6517857155
62	28379,3729166664
63	36767,2800925918
64	20340,8214285717
65	22022,6931818186
68	10640,0872641508
69	17529,909090909
70	23188,0721153842
71	2938,53731343266
72	32822,1409090903
73	91202,0439189133
74	28272,6038461545
75	24999,5
76	25633,4854166655
77	13244,3275862073
78	23153,9880952375
79	16644,1610576921
80	28820,9375
82	20183,1184210528
83	20929,0187500005
84	54481,4619565197
85	30664,4836065563
86	15193,4999999996
89	6782,45170454541
90	43183,9003623203
91	16773,1954545453
92	12921,8173076928
93	29733,845588235
94	34060,2564655163
95	15186,2833333335
96	26634,3548387099
97	21478,6057692312
98	21607,1818181821
99	37798,2670454536
100	25615,28125
101	20108,9333333346
102	22332,0124999993
103	16294,9567307694
104	11198,5882352944
106	17607,3918269232
107	1438,15909090905
108	23296,2596153853
109	15434,3571428569
110	28361,8823529405
111	12016,8181818178
112	13019,2884615389
113	15424,3363636365
114	22408,913306451
115	42206,0211864404
116	23686,3921568631
117	11445,8571428572
118	38994,639925374
119	11057,3317307689
120	16191,5762711864
121	52139,1809210513
122	27040,6287878786
124	29034,6153846161
125	18475,614035088
127	1151,5657894737
128	19834,1477272724
129	15176,2666666668
130	32104,268656718
131	27841,6166666663
132	19762,9099999996
133	15945,7500000001
134	346,113636363644
135	31324,3559322032
136	51973,7083333347
137	72681,5937500051
138	37999,7025862074
139	16643,5745614038
140	13889,6105769228
141	14043,3647540981
142	71342,012345681
143	21573,4256756761
144	21587,6551724136
146	14396,9374999999
147	16310,2058823533
148	50057,7548076941
149	435,569767441858
150	30581,708333333
151	3199,80769230773
153	60401,6073717983
154	49476,0563380263
155	51760,735849055
156	58397,0569852931
157	14382,5817307697
158	21884,3928571425
159	20497,5169491527
160	30384,9499999995
161	1540,54360465119
162	18797,3590733589
163	40235,65625
164	13618,1057692306
165	24780,048295454
166	13566,6812500002
167	42244,4038461554
168	14305,2894736844
169	18460,0560344823
171	83099,2499999986
172	29668,2065217382
173	21761,1594827593
174	13943,7250000002
175	16423,4516129035
176	29073,41796875
177	66104,7892857153
178	33079,6230769232
179	28033,1249999994
180	35707,175847457
181	80716,7729166637
182	13530,6147540986
183	18511,8088235289
184	8534,14999999997
185	33404,2954545457
186	44154,0937499984
187	12843,5793269232
188	33385,3333333337
189	18611,1059322032
190	21555,5961538467
191	21087,7624999992
192	25037,21875
193	32823,671875
194	5158,94886363631
195	8664,09615384643
196	37963,0645161297
197	95584,1527777741
198	22208,1449999993
199	16886,6818181815
200	17713,46875
201	11484,5787037034
202	33769,4
203	9124,5288461537
205	17372,1557377051
206	11454,0905172413
207	16555,0041666663
208	11742,96875
209	10781,4230769234
210	17170,0657894735
211	59470,3668032763
212	20596,1525423723
213	19935,65625
214	23559,8333333327
215	14964,0952380951
216	35713,3955223889
217	21077,8421052635
218	45697,4583333323
219	27737,3979166672
220	17168,2090909097
221	32622,7392241372
222	43489,9950657884
223	18802,7499999993
224	29455,6465517234
225	30566,5921052626
226	21186,6491935486
227	97518,9044117699
228	33158,0565068509
229	132642,737704919
230	32286,2923076932
231	15077,9152542371
232	24327,8946078424
233	16950,1052631579
234	13360,3529411761
235	57260,0499999969
236	27667,0625
237	39594,227272729
238	47174,7106164394
239	64786,6416666657
240	37746,0909090912
241	17917,2040816324
242	27711,1305147071
243	17372,5736607145
244	5500,12750000002
245	4232,12671232869
246	13748,2596153844
247	30830,6081730772
248	13118,4687499998
249	10910,6617647059
250	18296,0336538463
251	371,941489361705
252	18661,2763157895
253	8905,80528846139
254	23554,4321428574
255	11836,3953488368
256	30218,1348039222
257	55057,4927536259
259	22549,4350961546
260	34530,7681818181
261	68331,5953389827
262	28703,725378789
263	17315,254716982
264	20614,4597457634
266	18703,775390625
267	35064
268	21471,3666666664
269	28440,75
270	14169,022321429
271	17267,4086538464
272	24413,4335106376
273	36428,9000000011
274	13098,2091346155
275	10636,0389344265
276	1249,77205882355
277	21481,4999999996
278	21793,1051587295
279	43129,7352941167
280	15758,4868421053
281	88249,5716911731
282	17654,9254032263
284	18116,8686440676
285	13008,5000000001
286	13495,109375
287	22865,4948979587
288	72797,7625000021
289	17739,68
290	15904,5686274506
291	32051,3873239448
293	18421,2954545459
294	41267,1897321433
295	38708,1890243912
296	33557,7103174602
297	13640,7941176467
298	21833,0600961535
299	44838,1184210517
300	72692,1125000021
301	13392,966346154
302	31758,9158653849
303	18604,8416666663
304	28527,5169491527
305	26491,7377049192
307	23165,8680555559
309	30347,7686567167
310	14960,65625
311	11163,0803571427
312	44965,4487179461
313	42943,8729166661
314	23381,7372881364
315	11379,4166666664
316	13465,7434210523
317	23662,0735294121
318	45022,8582089558
319	22625,8676470596
320	121856,223076924
321	110168,950367649
323	125964,561403509
324	13112,6666666665
325	40195,9190140826
326	31382,4772727284
327	15592,8384146338
328	10514,9818181814
329	22465,6865671635
330	21997,8461538467
331	10966,1346153845
332	18623,3833333332
333	22002,0847457622
334	616,730113636369
335	6615,54591836728
336	22654,7800000004
337	19328,1249999998
338	64745,25
339	11631,2604166669
340	23515,7950000006
341	27953,7982456135
342	396,319999999991
343	587,132500000016
344	9992,07692307677
345	34400,3157894725
346	20555,8695652177
347	20564,9668367351
348	53978,7899305534
349	449,522727272742
350	20305,5124999997
351	25812,3749999994
352	41563,9599056599
353	32559,8352272718
354	18135,3666666669
355	12055,5275000003
356	15286,7331730773
357	3083,71078431382
358	12515,1296296302
359	20055,5
360	45746,3571428577
361	21389,500000001
362	23284,1999999996
363	25483,4538461549
364	26008,5348837214
365	36604,615384615
366	60650,1111111134
367	17570,6249999999
368	18531,4855769227
369	28864,9959677415
371	27116,8358208964
372	21687,1046511624
373	34328,8461538454
374	27518,7697368422
375	27468,875
376	13409,6778846152
377	20402,3578431363
378	10892,9656862746
379	31290,4204545439
380	14545,8135593223
381	39807,2828947376
382	14349,7000000004
383	27413,4615384609
384	59228,500000001
385	21276,9409090915
386	21808,9583333335
388	22922,7978723408
389	13824,7413793103
390	14258,7692307696
391	1336,10763888891
392	20003,90625
393	15517,1567796618
394	8097,48245614043
395	28189,1875
396	19178,4038461539
397	18564,59375
398	1245,8068181818
399	11770,9150943398
400	32674,2500000012
402	14446,5625000003
403	19968,9975961541
404	15946,861842105
405	24339,9471153838
406	11174,5127118641
408	17224,4423076925
410	51983,530737703
411	30038,4661016952
412	16645,1616379312
413	14860,1509433965
414	23973,0741525429
415	22133,7346491224
416	22048,969827587
417	29611,6418269237
418	14816,0982142855
419	44508,8173076925
420	21190,8634615389
422	14934,2568181816
423	21362,4249999995
424	70131,0723684208
425	10184,4094827588
426	17994,59375
427	25679,3725961542
428	35566,7307692305
429	30004,4199999991
430	12934,5263157899
431	14408,4999999997
432	119065,484589045
433	11102,0943396227
434	25948,2403846156
436	74937,4374999997
437	19987,8095238093
439	28016,7019230777
440	20664,2127659569
441	45772,1313559308
442	49399,96875
443	23844,3625000006
444	20229,0312499991
445	44541,131355933
446	18264,1166666669
447	6352,4772727271
448	117458,703703708
449	43870,9634615408
450	18979,1122448974
451	11871,0504807689
452	29111,6452205891
453	29852,6634615389
454	24862,0729166676
455	1479,00480769229
456	1894,02272727273
457	28347,3103448274
458	46019,75201613
459	48209,2812499982
460	14513,9735576925
461	16831,470338983
462	811,625
463	14054,2599999999
464	14583,6136363632
465	40313,7132352955
466	24643,1057692314
467	52537,4677419336
468	17184,8092105267
469	3461,90243902446
470	9416,91911764721
471	12140,002314815
472	22896,0673076917
473	44129,9375000016
474	30137,887931035
475	25348,0701754392
476	10718,1704545454
477	18204,329268293
478	28052,6923076918
479	22417,6891891896
480	56671,8576388863
481	16359,8011363639
482	44051,9079861089
483	46034,922077923
484	8917,5
485	22414,8812499996
486	50294,0405405387
487	10763,083333333
488	31026,9730769233
489	70450,3943965514
490	13008,7142857141
491	8762,58522727284
492	115967,592592588
493	17858,0482954544
494	20856,65625
495	56658,4227528079
496	47489,971590908
497	10406,2716346155
498	17981,6057692308
499	38896,2408088217
501	32970,7954545466
502	25673,0000000006
503	29869,4000000009
504	12990,391393443
505	32613,0850694434
506	14808,9072580647
507	27408,0384615388
508	21031,0749999995
509	40812,5597014929
510	20332,3400000003
511	17472,034722222
512	2028,96938775506
513	24656,2631578951
514	49947,1384615369
515	29390,3898305076
516	15154,8430232561
517	15434,223484849
518	18147,8792372877
519	24638,8134328362
520	29163,0202205892
522	32685,4224137927
523	17554,8829365073
524	43746,6105769223
525	25042,2723880591
526	40530,3774038449
527	33843,9491525428
528	15077,9784482761
529	61963,3026315797
530	30299
531	15793,2499999996
532	16982,2925531918
533	16463,5084745763
534	24326,432692308
535	31344,0454545445
536	8467,33333333326
537	21555,5250000006
538	22715
539	9824,21933962276
540	17371,4302884614
541	23391,6144067791
542	10424,8464912278
543	103025,92307693
544	17100,0480769236
545	25795,5227272725
546	14958,2611940294
547	19444,9722222221
548	27897,0961538469
549	41708,5549242435
550	29252,7500000012
551	18313,75
552	59564,2365384627
553	22405,5909090899
554	16972,7836538462
555	12706,7880434779
556	17564,3387096779
557	23389,5681818175
558	10127,0909090906
559	24674,7848837214
560	5887,14194915271
561	36034,779296875
562	18755,3605769233
563	21336,6619318178
564	16636,5937500002
565	11523,3124999998
566	18364,0338983045
567	18261,6328125
568	19404,6187499997
569	1236,04166666665
570	49633,1854838687
571	33181,2272727285
572	18203
573	25655,6960227278
574	11441,6041666664
575	70980,0480769288
576	33391,9687499995
577	17603,3921568624
578	34718,0110294132
579	11443,0021186442
580	1018,71306818181
581	35919,038461539
582	41799,6447368438
583	19460,8809523808
584	15661,6286764702
585	23151,6940298512
586	1181,72727272726
587	43882,8658088222
588	28027,9999999993
589	22506,54296875
590	24348,1307692296
591	33911,1513157906
592	28599,8307692313
593	12686,6850000003
595	44034,4166666672
596	23949,2586206911
597	21141,3629807689
598	22296,5000000003
600	21464,5124999998
601	28660,5889423074
604	35791,8857142871
605	85220,4423076903
606	26262,7095070431
607	17779,0166666665
608	28317,7245762721
609	19368,5659090907
610	27186,74609375
611	3086,0625
612	17946,6749999998
613	21276,6050000005
614	40231,9444444449
615	23320,5076923066
616	8423,84500000005
617	36891,0120192313
618	13815,4951923076
619	27083,6315789476
620	17492,7049180331
621	16470,5131578949
622	23124,8076923088
623	28031,717391305
624	21639,5889423067
625	27467,0000000005
626	15160,0562499995
627	146943,06153846
628	7244,56521739138
629	14117,7916666672
630	10357,1122448982
631	44690,0882352927
632	18236,1800847455
633	32517,1209677429
634	26099,7363636373
635	28008,1995192303
636	9104,50000000026
637	16340,1333333338
638	20481,7000000008
639	12143,7954545452
640	11357,7830188681
641	23983,6874999995
642	12866,6101694913
643	30983,4062500006
644	18790,9298245609
645	19427,3075396831
646	16892,1979166668
647	13503,7352941178
648	19499,1951754389
649	14955,1163793102
650	24890,4999999995
651	702,022727272737
652	18637,5
653	21011,4520833332
654	12778,104910714
655	14286,5240384619
656	28248,2288461543
657	20755,5677966098
659	35182,173076922
660	52345,866666666
661	14265,125
662	12558,6896551723
663	1522,80128205126
664	18438,4124999994
665	109021,83529412
666	21397,999999999
667	19411,6843220336
668	82108,4812499973
669	7928,43750000028
670	26030,3427419356
671	14372,1116071427
672	20095,1682692306
673	21101,9850746273
674	31119,5791666658
675	18112,7025000003
676	16011,2499999998
677	47777,0466666691
678	20497,196428571
679	29372,7033898312
680	19051,7781249998
681	404,687500000003
682	31601,0127118648
683	16137,5107142859
684	23274,2500000007
685	32433,0158730158
686	46682,4107142831
687	15705,2451923076
688	22650,4999999998
689	14997,6271929827
690	40713,5087719291
691	14400,5985576919
692	20963,8800000005
693	24919,5143442632
694	14202,0192307697
695	25694,7307692304
696	15354,5360576927
697	39527,9999999993
698	8072,17857142872
699	16712,2764227645
700	3658,63942307699
701	21930,5
702	27668,6226851846
703	12096,375
704	34649,5555555572
705	33214,3137254909
706	18940,8124999998
707	21981,5750000008
708	24575,2211538454
709	19198,0576923082
710	30948,5423728818
711	20530,9375000006
712	15963,8671875
713	9103,27118644059
714	15097,5943396229
715	39625,4583333328
716	17064,1458333333
717	25984,3711538455
718	48903,403846153
719	11519,4000000003
720	27255,4047619056
721	31936,2763157896
722	74763,9868421055
723	629,20923913043
724	15693,502083333
725	29308,8494318175
726	6433,38775510219
727	18556,8189655169
728	12198,0767543861
729	12008,0714285717
730	50325,6315789479
731	45883,6351351345
732	1443,47000000003
733	20775,3529411759
734	62243,2878787875
735	73782,8387096779
736	26918,3297413794
737	50440,0746268633
738	11196,3487903228
740	25402,5535714291
741	988,989999999977
742	1379,0859375
743	21093,0416666663
744	17247,2500000001
745	12743,9607843136
746	81858,5236486453
747	19402,8014705885
748	29810,9263392852
749	37835,5625
750	13570,8217592597
751	15708,0769230767
752	23881,2701612908
753	32607,7041666664
754	13095,8951612901
755	17072,96875
756	23891,8653846155
757	14237,490384615
758	24721
759	16096,0576923075
760	11418,1446078436
761	21316,2499999996
762	23636,4110169486
763	14718,7328431367
764	11361,3729508199
765	19641,1153846144
766	26599,863970587
767	27462,6186440673
768	31565,3749999994
769	47861,5094696957
770	43746,2544642864
771	9589,60937499986
772	22372,7413793111
773	24338,8813559316
774	33889,9356060613
775	16968,0797413791
776	43484,1355932211
777	120703,375000006
778	16507,2500000001
779	19743,9375
780	13391,3571428567
781	28348,4812499996
782	15652,5624999996
783	10081,8660714282
784	14421,94612069
785	42706,8749999986
786	145754,683823522
787	19540,2161016949
788	26834,1375000014
789	20889,9044117649
790	141355,180147054
791	23159,3508771937
792	17785,1534090911
793	36222,6874999985
794	26258,2980769227
795	17615,0769230764
796	20608,9137931031
797	12305,7386363634
798	53130,2818627443
799	30560,7648305077
800	21889,0673076927
801	18589,8942307693
802	784,688953488361
803	85766,3728813526
804	3737,07499999992
805	27938,8636363632
806	79113,2878787874
807	57733,1988636337
808	32080,4549180315
810	42749,375
811	22642,2980769233
812	19625,1363636366
813	15325,1666666662
814	21228,7037037032
815	13261,3548387094
816	13033,522727273
817	21895,5772058819
818	20119,790909091
819	12966,8916666668
821	39994,7666666669
822	30345,4666666669
823	22376,2415254232
824	18716,2068965513
825	42505,1140350887
826	48214,7916666677
827	28686,59375
828	17528,6079545452
829	21748,276315789
831	20383,9615384618
832	15734,4791666672
833	14694,3970588239
834	14964,2372881361
835	12400,6268939393
836	46772,40625
837	56425,6354166654
838	3514,79651162795
839	948,032608695661
840	19034,3518518514
841	36463,5409836058
842	12657,167682927
843	23805,7126865673
844	18892,671875
845	15000,8749999998
846	35656,7720588225
847	8736,01886792446
848	31251,3314393944
849	21345,8629807698
850	6467,40697674414
851	27683,1779661019
852	6714,07142857152
853	29869,6857142855
854	22079,6052631573
856	13783,3644067794
857	20441,7272727268
858	18591,9004237295
859	23372,2899999998
860	34218,922619047
861	17832,5342465758
862	19086,2200704231
863	55738,8571428557
864	52901,6298076954
865	33109,8297872348
866	14947,5
867	19592,4507042273
868	9447,85714285721
869	57220,5541666696
870	15977,0886363637
871	25051,7620967743
872	12443,9375000002
873	16472,2887931033
875	18138,571428572
876	17932,2324561407
877	733,605769230759
878	12974,7033898303
879	27479,2390350875
880	10260,7222222224
881	17551,6551724137
882	79232,8229166686
883	15947,639344262
884	42354,1249999997
885	18488,7605932203
886	9757,79166666682
887	18711,4206730767
888	20499,1875
889	15894,156779661
890	2691,06770833337
891	35932,3999999999
892	25426,4583333328
893	61771,5916666641
894	61528,151785712
895	27528,5937499993
896	17887,4830508478
897	51798,2619047628
898	21460,3937500005
899	18473,3413461541
900	15466,1041666669
902	14853,0208333337
903	6069,03066037742
904	14644,9639423078
905	62383,8097826073
906	13037,6923076927
907	21530,1397058835
908	13692,5572033901
909	44721,3972602755
910	14343,8135593219
911	21143,8993055545
912	32778,85326087
913	105873,487500004
914	40317,1875
915	72588,0999999971
916	11614,4191176469
917	20384,3181818185
918	24319,6712328764
919	24236,9999999995
920	13509,8232758616
921	13895,0769230771
922	13503,5288461535
923	49119,6736111099
926	18173,8421052628
927	18038,2862903228
929	116304,254166668
930	30670,4399038455
931	10049,1988636364
932	44690,3571428565
933	22957,3306451617
934	7796,10937499989
935	34049,125
936	81286,8076923112
938	23047,2933673475
939	18399,375
940	15635,2750000002
941	15646,4471153849
942	16025,1944444443
943	9743,51339285724
944	13700,2549019608
945	38521,4375
946	8333,47999999993
947	16466,2142857141
948	39985,2076271199
949	20444,8630952389
950	45510,4632352958
951	7569,32203389866
952	31319,9249999986
955	231309,739130447
956	28165,3750000004
957	21992,6658653844
958	23714,7629310342
959	41012,9499999995
960	21949,9583333336
961	25944,7878787874
962	16680,8026315793
963	46731,8146551736
965	23966,7916666681
966	42913,2049180319
967	20906,5937499997
968	16386,5862068965
969	2574,18181818186
970	2409,75480769232
971	22943,3970588227
972	19701,6125000005
973	55833,8030303046
974	1219,39285714284
975	25042,4583333327
976	16363,2379032252
977	19282,559322034
978	18611,7267857147
979	2878,75
980	293239,821120693
981	41500,6625000005
982	18622,7916666665
983	26640,2083333327
984	1260,27556818181
985	17211,592105263
986	13508,755681818
987	4455,31818181816
988	18756,7301587297
989	17971,0357142854
991	7298,30769230764
992	20809,6772727276
993	17661,5714285716
994	22538,6875000005
995	11290,4903846152
997	16922,934210526
998	22112,913461538
999	12683,423828125


