C:\Users\Roman\Desktop\РНФ по разработке Цитометра\SPI_2019\SFM_Danil_autofluorescence\B16-F10\Live\200mW_B16-F10_live(77%)_autofluorescence_10.daf
single_cells

Object Number	Intensity_MC_Ch02
0	9913,918103448
1	13658,3246268658
2	22749,1730769224
3	6791,11088709694
4	11139,75
5	12063,9750000002
6	12561,9142156865
7	11849,105392157
8	9836,04449152555
9	10522,1710526315
10	20942,2727272728
11	7542,12045454554
12	10928,0280172416
13	23914,0714285712
14	12618,4708333338
15	20325,0961538457
16	14133,6370192304
17	15082,2794117645
18	21141,0264423082
19	16621,7669491522
20	16239,5
21	23962,2696078437
22	22542,7181372548
23	26556,2435344835
24	21910,5362318849
25	11611,3159090912
26	7374,74038461545
27	26594,7755681822
28	5257,01715686264
29	14415,2585227276
30	13636,9907407412
31	8901,4874999997
32	14134,6225961535
33	10318,370689655
34	6761,8157894736
35	7112
36	8958,37499999987
37	19604,4480769237
38	57024,0481927698
39	6967,53813559303
40	14473,0892857146
41	14371,6299999998
42	21630,8666666672
43	15826,5272727277
44	15591,05859375
45	16813,5746527787
46	12973,4423076925
47	11531,6207627116
48	15497,8806818179
49	19965,266544118
50	35269,3125
51	6713,3977272728
52	12557,8333333337
54	11255,3413461542
55	31674,932432434
56	12412,8181818184
57	18442,3370535714
58	12522,7727272725
59	6968,1875
60	23643,2016129037
61	2968,10294117657
62	11057,684322034
63	36560,3333333331
64	9171,38157894756
65	14211,4821428577
66	13269,2650862065
67	21485,8333333338
68	15833,7499999994
69	12529,305084746
70	12239,9310344832
72	8781,96527777748
73	16495,0895833331
74	23707,6153846164
75	24800,7731481489
76	13602
77	12780,2729166665
78	8380,00862068958
79	9276,27403846126
80	18098,4741379304
81	7477,35096153886
82	9314,72115384605
83	12723,9354838711
85	49689,5967741984
86	932,234693877557
87	22817,0833333325
88	8158,53232758599
89	33332,9253731334
90	14610,8173076919
91	11811,640625
92	16716,8333333333
93	21326,84375
94	10243,6388888887
95	17003,9166666668
96	12059,2727272729
97	37435,5683139518
98	10821,6052631581
99	15038,21875
100	28696,7924999986
101	15155,1544117643
102	13422,1991525426
103	15910,0503731345
104	12339,3155737702
105	15440,0166666665
106	7847,22245762689
107	12501,7041666664
108	32152,813311687
109	15650,2000000004
110	14717,8235294114
111	14417,4830508472
112	22499,9669117641
113	13412,2956730768
114	11358,8749999996
115	21685,6799999998
117	13598,0723684211
118	22541,4616935491
119	3145,13157894747
121	15998,8166666674
122	11273,0625
123	1444,27586206894
124	11823,0909090912
125	22862,2312499997
126	17755,5593220334
127	32626,9204545468
128	8560,92584745775
129	15842,1271186436
130	4374,69186046509
131	10548,7307692306
132	12764,0517241377
133	14307,9600000007
134	15637,5762711858
135	8648,23214285718
136	11549,3576388887
137	7721,70192307679
138	11445,119565217
139	18081,9333333337
140	19809,1578947361
141	14134,8093220337
142	23411,1865671639
143	19348,09375
144	11159,5000000001
145	18687,1490384623
146	10737,8432203392
147	12865,8605769234
149	9110,40865384614
150	19902,6791666662
151	40589,5000000013
153	13422,9999999999
154	34352,1125000002
155	8845,71875
156	8538,33467741969
158	10755,3409090909
159	25598,7352941182
160	2644,8210227273
161	15771,1694915251
162	23478,2671232865
163	13749,4375
164	13259,6041666665
165	8307,46153846167
166	8200,8894230769
167	22027,125
168	9016,66826923067
169	30547,0933333354
170	11371,0738636366
171	20542,0291666663
172	12863,9583333336
173	17833,6785714288
174	11720,7151639348
175	20467,3750000004
176	16165,1999999994
177	9619,05989583352
178	12291,788043478
179	11527,8928571428
180	15787,2598039211
181	32987,4227941179
182	27287,9102564086
183	12797,4517543862
184	1461,51225490197
185	16508,0985576922
186	15527,4038461533
187	10677,6370192306
188	11901,5
189	18334,8000000003
190	1566,49431818179
191	25223,53125
192	22525,3854166663
193	10032,6206140353
194	10457,7459016391
195	9932,68965517244
196	27401,6778846143
197	12661,1203703698
198	40484,6413043498
199	19690,4666666669
200	10865,145833333
201	16108,1147540977
203	25149,9687500005
204	8346,23275862054
205	29606,0673076911
206	20028,1562500004
207	1464,20833333333
208	7707,8028846153
209	15967,3671875
210	11445,5124999997
211	956,442307692325
212	2166,54250000003
213	21575,2499999993
214	17755,0538461542
215	39689,8064516152
216	16567,6176470589
217	13587,007692308
218	12745,4852941175
219	6950,6370967741
220	8482,56410256413
221	14902,8030303025
223	13247,8373015874
224	16752,5055970147
225	9904,50877193004
226	12586,713541667
227	14618,8577586206
228	13261,706896552
229	18673,1764705878
230	33116,53125
231	8464,72249999983
232	9859,08430232549
233	9124,28605769241
234	9441,91666666677
235	6640,84999999979
236	37246,4595588225
237	9427,51388888894
239	17515,4249999995
240	9193,33898305078
241	30247,2592592599
242	9995,51851851847
243	35010,31640625
244	23585,3125
245	5607,15441176456
246	11173,0862068968
247	11481,7812500002
248	39546,1013513495
249	16215,78125
250	8400,64423076935
251	14804,0227272724
252	24382,2909090916
253	9062,9142156862
254	19393,7975352119
255	21235,5294117641
256	16562,9428571434
257	942,946022727285
258	27274,7372881363
260	8693,94736842108
261	10660,2457627116
262	7867,65517241389
263	1528,29411764705
264	9789,64215686286
265	11677,3135593219
266	13668,7542372881
267	13111,140625
268	12383,2052238807
269	19526,3725490193
270	23687,3076923086
271	59456,7535714245
272	13736,0738636361
273	21798,3307692303
274	13144,5338983049
275	1375,87499999999
276	14959,9254385962
277	9522,43534482761
278	29114,102459017
279	15545,7750000002
280	8173,4779411764
281	10693,259090909
282	13164,1208333331
283	12329,0430327871
284	17988,9791666666
285	18501,430769231
286	13242,0463709675
287	36511,074152543
288	32648,9053030311
289	13550,4375
290	13027,8846153847
291	17034,2500000003
292	58819,5542763174
293	14048,2499999997
295	10433,3421052634
296	6988,60787671217
297	12620,5474137928
298	11455,0159574471
299	75887,8029661012
300	22404,7033898311
301	13285,9943181813
302	20624,6095890405
303	9580,59756097565
304	6974,1975000001
305	14730,7812500003
306	453,366847826092
307	11725,0746268654
308	9863,76923076909
309	10814,1249999996
310	11770,0950000003
311	8074,99147727292
312	11753,7330508478
313	16778,1643835614
314	18096,5151515158
315	14054,0738636358
316	15001,2500000005
317	5410,53125
318	13432,9331896548
319	9389,7661290321
320	10044,1999999999
321	13390,3970588232
322	10828,357142857
323	4340,32462686561
324	11042,8872549018
325	14690,8326923081
326	8659,23076923088
327	12904,34375
328	12435,4903846157
329	13672,6346153841
330	12736,3333333336
331	8311,08894230784
332	10597,2843137251
333	15987,3911290325
334	22979,830508475
335	47687,4868421035
336	37874,1499999988
337	16668,4054054048
338	10955,6432291664
339	8669,68990384623
340	9953,47807017562
341	12678,6101694918
342	15436,9025423726
343	868,147727272739
344	13440,5127118647
345	8726,29772727285
346	669,5
347	17420,7259615382
348	1963,24364406781
349	7072,3750000003
350	40353,5909090924
351	32364,4802631567
352	26894,0649038466
353	4771,53769841267
354	15088,03125
355	10460,8239436621
356	11389,612903226
357	11089,0625000001
358	21814,1491228071
359	9411,98317307723
360	24498,2321428565
361	28183,9326923084
362	67755,2229729744
363	9397,24137931065
364	947,764204545466
365	2980,25961538457
366	18288,2574999997
367	11613,4682203392
368	22656,5230769239
369	11289,46875
370	29989,7299999987
371	13110,8658536582
373	19653,6541666673
374	17887,9035714277
375	3802,82386363622
376	20104,3220338988
377	18198,8203125
378	12536,6999999991
379	76187,3124999958
380	14079,0874999995
381	24933,8225806457
382	9061,16071428571
383	15392,9253731347
384	27124,8899253726
385	13658,8636363632
386	12926,0394736837
387	7846,88863636354
388	9812,3482142859
389	18373,4230769234
390	50561,548611107
391	17962,9166666672
392	16899,4204545453
393	18358,2076923077
394	28442,5661764699
395	8787,46428571425
396	6173,10795454531
397	15107,2794117648
398	8867,33653846169
399	11427,078125
400	50360,8988095191
401	33570,4045454562
402	10559,5000000003
403	23823,0882352931
404	8456,58333333363
405	14076,7947761198
406	42362,6071428593
407	6743,13701923063
408	3561,8452380953
409	18513,19047619
410	9118,96610169474
411	9648,84999999989
412	14038,8223684214
413	14572,4724264704
414	27571,1576086951
415	16916,9280303029
416	18296,5402542371
417	12745,3041666669
418	12761,7455357141
419	23216,7355769236
420	18791,3384615394
422	6782,19318181832
423	61668,75
424	13468,1080508479
425	1196,88235294116
426	25266,3875000008
427	8427,94915254246
428	17192,5249999997
429	16903,0697115384
430	6178,77777777781
431	24963,251953125
432	20242,3345070418
433	83985,241071426
434	42590,9375
435	13912,5514705879
436	11135,9602272729
437	10130,46875
438	7020,35714285701
439	37553,8605769236
440	6445,6691176472
441	17615,5769230767
442	9718,57932692339
443	11974,625
444	2087,34226190475
445	12329,4895833332
446	9668,06490384587
447	3101,69680851063
448	24793,8515625
449	46911,4766666646
450	40995,5032894746
451	24268,6029411757
452	15124,9750000006
453	7424,13207547162
454	11969,8818181819
455	33682,5681818179
456	10103,0517241377
457	17195,0254237285
458	7685,2633928574
459	12856,8461538457
460	22079,1418269236
461	16318,631578947
462	7774,109375
463	19368,037109375
464	564,937500000006
465	21621,8030303035
466	22091,388257576
467	14350,9285714288
468	36459,5606617638
469	17560,6733333327
470	9344,17708333311
471	6493,59210526299
472	23698,2711864403
473	40064,5104166673
474	16179,9999999991
475	9445,79545454575
476	12939,9517045453
477	21266,4545454535
478	8926,82978723377
479	7492,68534482736
480	18242,0288461532
481	13349,2392241376
482	7933,13221153858
483	907,918478260863
484	17673,8437499998
485	11550,2354166665
486	1448,96173469391
487	20207,9999999996
488	20557,55859375
489	12928,1299999997
490	29557,0833333337
491	10003,8461538465
492	11686,1929824559
493	9841,67067307675
494	11696,9208333328
495	18436,7103174602
496	4906,39182692299
497	26312,181818183
499	18015,1386363637
500	10158,0551470595
501	12831,5416666669
502	33711,7861842088
503	9264,34615384637
504	15225,0240384621
505	42573,2890625
506	7527,47881355913
507	10671,9375
508	11265,8958333335
509	12024,5346153853
510	26819,9208333335
511	7067,38749999973
512	22865,8320895513
513	2535,83333333335
514	13720,1666666663
515	27549,38690476
516	11565,2215909087
517	10855,8333333334
518	20617,8062500009
519	21889,8356164379
520	13563,2500000005
521	12964,8125
522	2558,64663461548
523	34682,9606164377
524	19870,2238805961
525	7360,47500000021
526	13263,6363636366
527	38877,724264707
528	19031,6562500003
529	17341,5085227269
530	8414,98557692324
531	13540,2358490564
532	22503,9062499997
533	16663,5208333332
534	13630,4749999998
535	5860,46180555549
536	16876,0000000006
541	1296,14499999999
542	12112,25
543	9131,16346153836
544	6646,43749999984
545	7682,30277777759
546	20080,4152542375
547	47320,1736111128
548	37167,6056338011
549	28460,8437500009
550	11488,8874999997
551	13815,5714285717
552	11166,9633620694
553	14345,6093750004
554	46531,688524591
555	11135,6271186442
556	59712,890625
557	9169,83750000025
559	15066,6032608699
561	8014,7692307693
562	12489,3333333331
563	9743,28232758641
564	17118,7104166664
565	10062,5270833332
566	11908,5590909088
567	14244,4703389827
568	71189,172413797
569	20397,7105263162
570	15144,3333333337
571	1161,40350877193
572	17885,4005681822
573	10767,9872881358
574	10142,1250000001
575	10487,5436046514
576	2768,56458333333
577	19085,46875
578	19708,7412280702
579	20494,9137931043
580	10312,6016949156
581	13480,6333333332
582	28627,0625
583	2578,85465116276
584	10947,0000000003
585	11337,4675000001
586	22195,1228813566
587	11513,7155172412
588	13603,017241379
589	6977,47115384626
590	13732,5000000002
591	13629,7458333332
592	9093,35344827587
594	58385,3500000011
595	2737,8125
596	11107,2374999997
597	134510,496323525
599	24261,941176471
600	19018,6779661024
601	9582,08333333347
602	11911,5795454547
603	12170,517857143
604	14025,931818182
606	10085,4374999996
607	8264,23214285705
608	7802,55580357131
609	15939,6184210523
610	4718,22587719288
611	8379,23529411752
612	9269,57978723432
613	26775,9227941185
614	10619,105
615	11346,5624999996
616	18859,5500000004
617	22644,9066901402
618	14431,2838983054
619	16321,010416667
620	21545,262987014
621	9405,73181818165
622	1621,5277777778
623	9447,96651785697
624	11367,7372881358
625	13827,7391304341
626	12066,2543103446
627	9466,98284313722
628	23201,6408450721
629	3343,38524590157
630	17213,7000000004
631	8989,20833333329
632	8598,68269230797
633	10966,7801724141
634	21146,4625000004
635	20775,8414179108
636	27588,2369402981
637	21782,1818181827
638	17468,4464285709
639	9031,11666666661
640	11882,1990740742
641	36848,0183823517
642	25678,6634615381
643	13025,5294117648
644	5158,58173076917
645	15829,4558823525
646	10584,4697580647
647	14781,4461538464
649	16048,9050925934
650	39318,3695652163
651	9336,82142857171
652	14428,4230769229
653	12057,7249999997
654	18116,20673077
655	23628,2727272716
656	6139,71428571435
657	16140,1829710155
658	2537,17647058826
659	2280,86647727269
660	29481,2236842113
661	11049,7880434784
662	16375,6521739129
663	29059,7875000002
664	18119,7014925376
665	13807,9062500002
666	5439,57451923086
667	7441,125
669	8201,1499999997
670	15897,4189814818
671	24400,7692307698
672	12606,2909836062
673	15049,6778846151
674	22678,9366666679
675	15381,7307692305
676	12700,834558823
677	11705,758333333
678	41268,9965753443
679	8238,2555555556
680	25663,9682835814
681	12138,4615384617
682	10441,0909090908
683	22769,0598591553
684	9529
685	12476,3402777773
686	7316,532894737
687	24188,8571428566
688	12491,1687499997
689	13377,3460144925
690	1646,35087719298
691	14327,7424242427
692	15725,8173076926
693	8073,49999999999
694	11205,7833333328
695	19259,4499999999
696	16546,43359375
697	929,511111111105
698	16032,0583333332
699	19725,1679104471
700	11407,3999999997
702	12460,6624999997
703	8226,66666666656
704	1368,00000000002
705	17939,6521739133
706	9179,86458333349
707	11368,2884615386
708	9269,54411764698
709	11030,7524038463
710	8093,35714285724
711	42076,3040540523
712	22585,7861842101
713	2404,74202127657
714	34741,4552238807
715	44145,4791666686
716	31584,3854166676
717	36435,4290540553
718	11215,3557692306
719	27309,066964285
720	9730,62500000022
721	47553,0042372893
722	14310,6376811589
723	15207,4375
724	10296,0901639346
725	7998,10416666639
726	9932,81034482771
727	7503,73214285716
728	9412,8355263155
729	11309,4418103447
730	6881,48275862059
731	8028,38983050866
732	4093,36363636368
733	13664,0163934428
734	10260,5991379308
735	12548,427734375
736	7959,30000000014
737	20926,7770833337
738	19236,4827586211
739	13821,4375
740	9558,88983050831
741	9473,37500000015
742	15402,208333334
743	9227,19057377039
744	7205,34482758652
745	10373,1041666668
746	17986,9999999999
747	56067,0921052658
748	6271,74759615369
749	17892,9499999995
750	1182,22727272726
751	15214,5876865671
752	16765,2934782603
753	12839,1309523809
754	15099,903846154
755	25218,1166666673
756	93788,957720584
757	3736,61079545448
758	10352,8601694916
759	8249,9375
760	9674,87019230775
761	23907,6363636355
762	15489,9224137926
763	878,749999999998
764	13877,0294117642
765	16011,9666666669
766	29527,826923077
767	4470,80357142864
768	13891
769	23784,9048913048
770	10387,2551020411
771	16062,701492538
772	23727,2339285716
773	31300,7641509442
774	14670,189516129
775	22062,4506578959
776	8804,59999999997
777	14808,7682291663
778	20254,3220338977
779	7449,61363636341
780	25228,472222225
781	21321,7351694916
782	14683,1229508201
783	2801,49999999999
784	9912,04661016934
786	31036,0884615377
787	11405,8442622953
788	39145,5616438362
789	26514,0321428567
791	1515,47222222223
792	12018,7436440681
793	20440,5447761202
794	8812,21666666634
796	15574,2500000003
797	11307,4081632652
798	14940,0161290319
799	19637,1650000002
800	17963,3333333335
801	53853
803	18345,3728813566
804	11371,1684782611
805	9548,258474576
806	9077,6875
807	23505,0093283562
808	13865,4999999995
809	12829,2307692305
810	15254,2613636357
811	13218,1212121208
812	13823,3461538459
813	29172,8839285707
814	2065,40104166669
815	12207,0514705883
816	10610,950819672
817	16280,4705882351
818	23569,2807017551
819	12914,9254807696
820	20027,4224137932
821	15068,6499999999
822	20640,9937500007
823	9337,57692307712
824	13022,1447368416
825	12640,7954545457
826	12941,9134615386
827	18616,6440677965
828	14836,7372881353
829	23966,0937499995
830	16565,6105769236
831	21134,5459183675
832	12912,2040816325
833	9072,00211864398
834	15756,7922794128
835	15745,9999999993
836	11490
838	13864,9624999996
839	12322,2236842104
840	18873,578125
841	16355,2250000002
842	21013,9208333333
843	10078,0499999997
844	10170,6217105254
845	16108,1953125
846	14186,278846154
847	14141,8749999998
848	9678,56147540957
849	10142,0437499997
850	9607,105769231
851	15124,2583333331
852	35332,4051204845
853	16320,7187500004
854	14437,645491803
855	15388,4981617651
856	1183,97674418607
857	15428,5396825399
858	7507,46394230762
859	21267,6165254242
860	424,566666666664
861	22077,2019230772
862	15111,1134868423
863	12729,4166666671
864	11441,2584745766
865	30470,0384615381
866	18401,4041666671
867	4320,67261904758
868	9202,015625
869	15573,2500000008
870	10646,3769230766
871	10171,6634615381
872	11388,7388059699
873	14989,7565789473
874	12930,7775735291
875	12093,6271186437
876	8570,79829545438
877	14828,3437500001
878	15958,4605263166
879	24425,3411016941
880	14382,4166666669
881	14771,540254237
882	19287,8377192977
883	12437,2423076928
884	33003,5306122455
885	8616,6754807695
887	8772,35526315767
888	13889,1486486484
889	10706,8620689651
890	1564,39204545457
891	13147,8168604652
892	7627,22916666683
893	12574,3684210522
894	14113,847457627
896	21802,6003086405
897	9309,60227272715
898	16659,8397887322
899	22202,9364754103
900	10264,8055555558
901	11801,7413793105
902	51750,5477941201
903	13354,4375
904	2423,75
905	3236,99754901957
906	28201,1764705875
907	7537,75
908	51004,8958333315
909	9775,18181818194
910	23085,2567567572
911	3815,91071428576
912	9906,70913461568
913	10205,0340909089
914	12134,9052419349
915	7530,41666666692
916	10479,1633064517
917	2226,66666666671
918	82394,5253378389
919	17459,1384615386
920	8314,38414634153
921	7280,60795454554
922	28579,4699999988
923	13596,0389344266
924	10298,1121323526
925	9801,80846774183
926	17846,7521551727
927	3402,07999999995
928	13229,3799019607
929	9107,87954545445
930	14754,2395833338
931	17852,5212264151
932	25080,7020833337
933	2359,2113636364
934	7529,03728070214
935	29154,4700000011
936	7492,19279660995
937	2333,76000000001
938	9812,97368421083
939	9417,0535714284
940	13641,7499999996
941	11150,4353448274
942	8096,50000000016
943	1520,0526315789
944	29215,8786764719
945	21216,609913793
946	18132,4791666668
948	1250,72727272728
950	28746,8405172419
951	11936,2884615387
952	33026,9250000024
953	28767,9404761909
954	1569,67151162794
955	24950,0583333336
956	7201,62499999974
957	18058,8770833329
958	11570,369140625
959	8331,91865079366
960	10957,2142857146
961	22581,0361842096
962	11141,7020833338
963	12573,6483050849
964	8940,13793103493
965	29039,2630208327
966	13428,3842592588
967	9949,20663265348
968	10260,8975000002
969	15491,9639423073
970	17008,7229166664
971	13941,2329545457
972	2780,09042553185
973	9293,41730769263
974	13699,3421052629
975	12407,9071969694
976	1973,0145348837
977	10673,1064814815
978	14543,822580645
979	8969,59999999971
980	11906,666666667
981	11952,2698863633
982	16722,5
983	19304,7473404259
984	7548,95192307682
985	17464,6499999994
986	16821,4326923074
987	19041,3830645161
988	23312,391666668
989	7921,81818181835
990	22245,1590909086
991	15445,4999999998
992	22832,8783783771
995	4853,50877192997
996	14830,0961538459
997	7955,49999999976
998	15834,6567796606
999	11534,4182692306


